time=      0.00000   No of gridpoints=     101
files: altitude (km), e field (micro V),
number density (cm**(-3), electron temperature (K)
      102.400      110.976      119.552      128.128      136.704      145.280
      153.856      162.432      171.008      179.585      188.160      196.736
      205.312      213.889      222.464      231.040      239.616      248.192
      256.768      265.344      273.920      282.496      291.072      299.648
      308.224      316.800      325.376      333.952      342.528      351.104
      359.680      368.256      376.832      385.408      393.984      402.560
      411.136      419.712      428.288      436.864      445.440      454.016
      462.592      471.168      479.744      488.320      496.896      505.472
      514.048      522.624      531.200      539.776      548.352      556.928
      565.504      574.080      582.656      591.232      599.808      608.384
      616.960      625.536      634.112      642.688      651.264      659.840
      668.416      676.992      685.568      694.144      702.720      711.296
      719.872      728.448      737.024      745.600      754.176      762.752
      771.328      779.904      788.480      797.056      805.632      814.208
      822.784      831.360      839.936      848.512      857.088      865.664
      874.240      882.816      891.392      899.968      908.544      917.120
      925.696      934.272      942.848      951.424      960.000
     -1.48473      1.55681      1.88144      2.21246      2.52374      2.78728
      2.97731      3.07369      3.06667      2.96019      2.77450      2.54706
      2.33118      2.17705      2.08691      2.00543      1.89183      1.75636
      1.62550      1.51610      1.43377      1.37749      1.34355      1.32757
      1.32544      1.33360      1.34914      1.36980      1.39372      1.41951
      1.44613      1.47275      1.49873      1.52359      1.54704      1.56883
      1.58876      1.60672      1.62270      1.63661      1.64848      1.65837
      1.66631      1.67235      1.67654      1.67902      1.67986      1.67912
      1.67688      1.67330      1.66842      1.66231      1.65511      1.64689
      1.63771      1.62762      1.61676      1.60519      1.59293      1.58004
      1.56662      1.55273      1.53837      1.52359      1.50848      1.49306
      1.47735      1.46136      1.44520      1.42883      1.41228      1.39561
      1.37884      1.36196      1.34498      1.32795      1.31089      1.29379
      1.27664      1.25952      1.24238      1.22523      1.20811      1.19105
      1.17400      1.15695      1.13998      1.12307      1.10620      1.08935
      1.07261      1.05591      1.03925      1.02268      1.00620     0.989777
     0.973396     0.957107     0.940921     0.924791     -11.0051
      21268.6      26959.9      34482.3      44270.6      56808.5      72588.0
      92030.6      115378.      142535.      172938.      205475.      238558.
      270328.      299004.      323209.      342177.      355764.      364325.
      368528.      369159.      366998.      362740.      356963.      350126.
      342582.      334595.      326358.      318011.      309655.      301359.
      293172.      285127.      277246.      269542.      262022.      254693.
      247554.      240605.      233843.      227268.      220872.      214655.
      208610.      202736.      197025.      191475.      186080.      180838.
      175743.      170791.      165980.      161303.      156758.      152342.
      148050.      143878.      139825.      135885.      132057.      128337.
      124721.      121208.      117793.      114475.      111250.      108116.
      105071.      102111.      99234.5      96439.4      93722.9      91083.0
      88517.4      86024.4      83601.4      81246.7      78958.4      76734.7
      74573.5      72473.3      70432.4      68448.8      66521.1      64647.8
      62827.4      61058.1      59338.7      57667.8      56044.1      54466.0
      52932.3      51442.0      49993.6      48586.0      47218.1      45888.8
      44596.8      43341.3      42121.1      40935.5      39783.1
      253.351      319.180      396.752      485.621      584.209      689.808
      798.799      907.177      1011.10      1107.44      1194.12      1270.21
      1335.68      1391.23      1437.93      1477.07      1509.92      1537.63
      1561.26      1581.65      1599.52      1615.45      1629.88      1643.17
      1655.61      1667.39      1678.70      1689.65      1700.34      1710.85
      1721.24      1731.54      1741.80      1752.03      1762.27      1772.51
      1782.77      1793.07      1803.40      1813.78      1824.20      1834.68
      1845.21      1855.79      1866.43      1877.13      1887.89      1898.70
      1909.58      1920.52      1931.52      1942.58      1953.71      1964.89
      1976.15      1987.46      1998.84      2010.29      2021.80      2033.38
      2045.02      2056.73      2068.51      2080.35      2092.26      2104.24
      2116.29      2128.41      2140.59      2152.85      2165.17      2177.57
      2190.04      2202.58      2215.19      2227.87      2240.62      2253.45
      2266.35      2279.33      2292.38      2305.50      2318.70      2331.97
      2345.32      2358.75      2372.25      2385.83      2399.49      2413.23
      2427.04      2440.93      2454.91      2468.96      2483.09      2497.30
      2511.60      2525.98      2540.44      2554.98      2569.60
